Number	Time	Temperature
     1	      15	33.7
     2	      65	33.6
     3	     115	33.4
     4	     165	33.4
     5	     215	33.6
     6	     265	33.4
     7	     316	33.1
     8	     366	33.2
     9	     415	33.4
    10	     465	32.7
    11	     515	33.4
    12	     565	32.9
    13	     615	33.6
    14	     665	33.6
    15	     715	33.6
    16	     766	33.6
    17	     815	33.7
    18	     865	33.2
    19	     915	33.6
    20	     965	33.7
    21	    1016	33.7
    22	    1065	33.6
    23	    1116	33.6
    24	    1165	33.7
    25	    1215	33.9
    26	    1265	33.7
    27	    1315	33.9
    28	    1365	33.9
    29	    1415	33.9
    30	    1465	33.9
    31	    1515	33.9
    32	    1565	33.7
    33	    1615	33.9
    34	    1665	33.7
    35	    1715	34.1
    36	    1765	33.7
    37	    1815	34.1
    38	    1865	34.1
    39	    1915	34.1
    40	    1965	34.1
    41	    2015	34.3
    42	    2065	34.3
    43	    2115	34.1
    44	    2165	34.1
    45	    2216	34.1
    46	    2265	33.4
    47	    2315	34.3
    48	    2365	34.3
    49	    2415	34.3
    50	    2465	34.3
    51	    2515	34.4
    52	    2565	34.4
    53	    2616	34.3
    54	    2665	34.4
    55	    2715	34.4
    56	    2765	34.3
    57	    2815	34.3
    58	    2865	34.4
    59	    2915	34.4
    60	    2965	34.3
    61	    3015	34.6
    62	    3065	34.3
    63	    3115	34.4
    64	    3165	33.7
    65	    3215	34.6
    66	    3265	34.6
    67	    3315	34.4
    68	    3365	34.6
    69	    3415	34.4
    70	    3465	34.4
    71	    3515	34.4
    72	    3565	34.6
    73	    3615	34.6
    74	    3665	34.4
    75	    3715	34.4
    76	    3765	34.6
    77	    3815	34.6
    78	    3865	34.3
    79	    3915	34.6
    80	    3965	34.4
    81	    4015	34.1
    82	    4066	34.7
    83	    4115	34.6
    84	    4165	34.7
    85	    4215	34.7
    86	    4265	34.4
    87	    4315	34.7
    88	    4365	34.1
    89	    4415	34.7
    90	    4465	34.4
    91	    4515	34.3
    92	    4565	34.7
    93	    4615	34.6
    94	    4665	34.8
    95	    4715	34.8
    96	    4765	34.7
    97	    4815	34.7
    98	    4865	34.7
    99	    4915	34.1
   100	    4965	34.6
   101	    5015	34.7
   102	    5065	34.7
   103	    5115	34.8
   104	    5165	34.6
   105	    5215	34.7
   106	    5265	34.7
   107	    5315	34.8
   108	    5365	34.6
   109	    5415	34.7
   110	    5465	34.8
   111	    5515	34.7
   112	    5565	34.8
   113	    5615	34.8
   114	    5665	34.8
   115	    5715	34.7
   116	    5765	34.7
   117	    5815	34.8
   118	    5865	34.8
   119	    5916	34.8
   120	    5965	34.8
   121	    6015	34.8
   122	    6065	34.8
   123	    6115	35.0
   124	    6166	34.8
   125	    6215	34.6
   126	    6265	34.7
   127	    6315	35.0
   128	    6365	35.0
   129	    6415	35.0
   130	    6465	34.8
   131	    6515	34.3
   132	    6565	35.0
   133	    6615	34.8
   134	    6665	35.0
   135	    6715	35.0
   136	    6765	34.8
   137	    6815	35.0
   138	    6865	34.4
   139	    6915	34.6
   140	    6965	35.0
   141	    7015	35.0
   142	    7065	34.8
   143	    7115	34.8
   144	    7165	35.0
   145	    7215	34.7
   146	    7265	35.0
   147	    7315	35.0
   148	    7365	34.7
   149	    7415	35.0
   150	    7465	35.0
   151	    7515	35.0
   152	    7565	34.4
   153	    7615	35.0
   154	    7665	35.2
   155	    7715	35.0
   156	    7765	35.2
   157	    7815	35.0
   158	    7865	35.0
   159	    7915	35.0
   160	    7965	35.0
   161	    8015	34.4
   162	    8064	35.0
   163	    8115	35.0
   164	    8165	35.0
   165	    8215	35.2
   166	    8264	34.8
   167	    8314	35.0
   168	    8365	35.2
   169	    8415	35.0
   170	    8465	35.0
   171	    8515	35.2
   172	    8565	35.0
   173	    8615	35.2
   174	    8665	34.7
   175	    8714	35.2
   176	    8765	35.2
   177	    8815	35.2
   178	    8865	35.2
   179	    8915	35.0
   180	    8965	35.0
   181	    9015	35.2
   182	    9065	35.2
   183	    9115	35.2
   184	    9165	35.2
   185	    9215	34.7
   186	    9264	35.2
   187	    9315	34.7
   188	    9364	35.2
   189	    9413	35.2
   190	    9463	35.2
   191	    9513	35.2
   192	    9563	35.2
   193	    9613	35.2
   194	    9663	34.7
   195	    9713	35.2
   196	    9763	35.2
   197	    9813	35.2
   198	    9865	35.2
   199	    9913	35.3
   200	    9963	35.2
   201	   10013	34.4
   202	   10062	35.2
   203	   10115	35.0
   204	   10163	34.8
   205	   10212	35.2
   206	   10263	35.2
   207	   10312	35.2
   208	   10365	35.2
   209	   10415	35.0
   210	   10463	34.8
   211	   10512	35.2
   212	   10562	34.7
   213	   10612	35.2
   214	   10662	35.2
   215	   10712	35.2
   216	   10763	35.2
   217	   10813	35.2
   218	   10862	35.2
   219	   10912	35.0
   220	   10964	35.0
   221	   11012	34.8
   222	   11062	35.2
   223	   11112	35.2
   224	   11162	35.3
   225	   11214	35.2
   226	   11263	35.0
   227	   11313	35.3
   228	   11362	35.0
   229	   11415	35.2
   230	   11462	35.3
   231	   11515	35.3
   232	   11564	35.2
   233	   11612	35.3
   234	   11664	35.3
   235	   11712	35.2
   236	   11762	35.3
   237	   11812	35.3
   238	   11862	34.8
   239	   11912	35.2
   240	   11964	35.2
   241	   12012	35.2
   242	   12064	35.2
   243	   12112	35.0
   244	   12162	35.3
   245	   12212	35.3
   246	   12262	35.2
   247	   12314	35.3
   248	   12362	35.3
   249	   12412	34.8
   250	   12464	35.3
   251	   12515	35.3
   252	   12564	35.2
   253	   12615	35.3
   254	   12664	35.2
   255	   12714	35.3
   256	   12765	35.0
   257	   12812	35.2
   258	   12862	34.7
   259	   12914	35.3
   260	   12964	35.3
   261	   13014	34.7
   262	   13062	35.3
   263	   13112	35.2
   264	   13164	35.2
   265	   13214	35.3
   266	   13264	34.6
   267	   13315	35.3
   268	   13365	35.0
   269	   13414	35.3
   270	   13464	35.2
   271	   13514	35.0
   272	   13564	35.3
   273	   13614	35.2
   274	   13664	35.0
   275	   13714	34.7
   276	   13764	35.2
   277	   13814	35.3
   278	   13864	35.0
   279	   13914	34.6
   280	   13964	35.3
   281	   14014	35.2
   282	   14064	35.3
   283	   14114	35.3
   284	   14164	35.3
   285	   14215	35.3
   286	   14264	35.0
   287	   14314	35.2
   288	   14364	35.3
   289	   14415	35.2
   290	   14465	35.3
   291	   14514	35.3
   292	   14564	35.3
   293	   14614	35.2
   294	   14664	35.3
   295	   14714	35.3
   296	   14764	35.3
   297	   14814	35.3
   298	   14864	35.3
   299	   14914	35.0
   300	   14964	34.7
   301	   15014	35.3
   302	   15064	35.3
   303	   15114	35.3
   304	   15165	35.0
   305	   15215	35.2
   306	   15264	35.3
   307	   15314	35.2
   308	   15364	35.3
   309	   15414	35.3
   310	   15464	35.3
   311	   15514	35.3
   312	   15564	35.3
   313	   15614	35.2
   314	   15664	35.3
   315	   15714	35.3
   316	   15764	35.3
   317	   15814	35.2
   318	   15864	35.3
   319	   15914	35.3
   320	   15964	35.0
   321	   16014	35.2
   322	   16065	35.0
   323	   16115	35.2
   324	   16165	35.3
   325	   16215	35.3
   326	   16266	35.3
   327	   16315	35.3
   328	   16365	35.3
   329	   16416	35.2
   330	   16465	35.2
   331	   16515	35.3
   332	   16565	35.5
   333	   16615	35.2
   334	   16666	35.3
   335	   16715	35.3
   336	   16765	35.3
   337	   16815	35.3
   338	   16865	35.3
   339	   16916	34.7
   340	   16965	34.8
   341	   17015	35.3
   342	   17066	35.3
   343	   17115	35.3
   344	   17165	35.3
   345	   17215	35.0
   346	   17265	35.3
   347	   17315	35.3
   348	   17365	35.2
   349	   17415	34.8
   350	   17465	35.3
   351	   17515	35.2
   352	   17565	35.3
   353	   17615	35.3
   354	   17666	35.3
   355	   17715	35.3
   356	   17765	35.2
   357	   17815	35.5
   358	   17866	35.5
   359	   17915	35.3
   360	   17965	35.5
   361	   18015	35.2
   362	   18065	35.3
   363	   18117	35.2
   364	   18165	35.3
   365	   18215	35.3
   366	   18265	35.3
   367	   18315	35.5
   368	   18365	35.3
   369	   18415	35.5
   370	   18465	35.3
   371	   18515	35.3
   372	   18565	35.3
   373	   18616	35.3
   374	   18665	34.8
   375	   18715	35.5
   376	   18765	35.3
   377	   18815	35.2
   378	   18866	35.2
   379	   18916	35.3
   380	   18965	35.5
   381	   19015	35.5
   382	   19065	35.3
   383	   19115	35.3
   384	   19166	35.2
   385	   19215	35.3
   386	   19265	35.3
   387	   19315	35.3
   388	   19365	35.5
   389	   19415	35.3
   390	   19465	35.5
   391	   19515	35.5
   392	   19565	35.5
   393	   19615	35.3
   394	   19665	35.3
   395	   19715	35.5
   396	   19765	35.5
   397	   19816	35.5
   398	   19865	35.3
   399	   19915	35.5
   400	   19966	35.2
   401	   20015	35.3
   402	   20066	35.3
   403	   20115	35.3
   404	   20165	35.5
   405	   20215	35.3
   406	   20265	34.8
   407	   20315	35.3
   408	   20365	35.3
   409	   20415	35.3
   410	   20465	35.5
   411	   20515	35.5
   412	   20565	35.5
   413	   20615	35.3
   414	   20665	35.2
   415	   20715	35.3
   416	   20766	35.5
   417	   20816	35.0
   418	   20865	35.3
   419	   20915	35.5
   420	   20965	35.5
   421	   21015	35.3
   422	   21065	35.3
   423	   21115	35.5
   424	   21165	35.3
   425	   21215	35.5
   426	   21265	35.2
   427	   21315	35.5
   428	   21365	35.3
   429	   21415	35.5
   430	   21465	35.5
   431	   21515	35.3
   432	   21565	35.3
   433	   21615	35.2
   434	   21665	35.3
   435	   21715	35.5
   436	   21765	35.3
   437	   21816	35.5
   438	   21865	35.5
   439	   21915	35.3
   440	   21965	35.3
   441	   22015	35.5
   442	   22065	35.5
   443	   22115	35.5
   444	   22165	35.0
   445	   22215	34.8
   446	   22265	35.3
   447	   22315	35.3
   448	   22365	35.3
   449	   22415	35.2
   450	   22465	35.0
   451	   22515	35.3
   452	   22565	35.5
   453	   22615	35.2
   454	   22665	35.5
   455	   22715	35.2
   456	   22765	35.5
   457	   22815	35.5
   458	   22865	35.0
   459	   22915	35.2
   460	   22965	35.3
   461	   23015	35.0
   462	   23065	35.2
   463	   23115	35.5
   464	   23165	35.5
   465	   23215	35.5
   466	   23265	35.3
   467	   23315	35.3
   468	   23365	35.3
   469	   23415	35.5
   470	   23465	35.2
   471	   23515	35.5
   472	   23565	35.0
   473	   23615	35.2
   474	   23666	35.5
   475	   23715	35.3
   476	   23765	35.5
   477	   23815	35.5
   478	   23865	35.3
   479	   23915	35.3
   480	   23965	35.3
   481	   24015	35.3
   482	   24065	34.8
   483	   24115	35.3
   484	   24165	35.5
   485	   24215	35.3
   486	   24265	35.5
   487	   24315	35.5
   488	   24365	35.5
   489	   24415	35.2
   490	   24465	35.5
   491	   24515	35.5
   492	   24565	35.5
   493	   24615	35.3
   494	   24665	35.5
   495	   24715	35.3
   496	   24765	35.5
   497	   24815	35.3
   498	   24865	35.0
   499	   24915	35.3
   500	   24965	35.3
   501	   25015	35.5
   502	   25065	35.5
   503	   25115	35.0
   504	   25165	35.2
   505	   25215	35.5
   506	   25265	35.2
   507	   25315	35.3
   508	   25365	35.5
   509	   25416	35.3
   510	   25465	35.5
   511	   25515	35.5
   512	   25565	35.5
   513	   25615	35.2
   514	   25665	35.3
   515	   25715	35.3
   516	   25765	35.0
   517	   25815	35.3
   518	   25865	35.5
   519	   25915	35.3
   520	   25965	34.7
   521	   26014	35.3
   522	   26065	35.5
   523	   26115	35.3
   524	   26165	35.5
   525	   26215	35.5
   526	   26265	35.5
   527	   26315	35.3
   528	   26365	35.5
   529	   26415	35.3
   530	   26465	35.5
   531	   26515	35.0
   532	   26565	35.3
   533	   26615	35.3
   534	   26665	35.5
   535	   26715	35.3
   536	   26765	35.0
   537	   26815	34.8
   538	   26864	35.5
   539	   26915	35.2
   540	   26963	35.3
   541	   27013	35.3
   542	   27063	35.3
   543	   27113	35.5
   544	   27163	35.2
   545	   27213	35.3
   546	   27263	35.5
   547	   27313	35.3
   548	   27362	34.8
   549	   27414	35.5
   550	   27463	35.5
   551	   27513	35.3
   552	   27563	35.5
   553	   27613	35.3
   554	   27665	35.3
   555	   27712	35.3
   556	   27763	35.5
   557	   27812	35.2
   558	   27863	35.5
   559	   27912	35.5
   560	   27962	35.5
   561	   28015	35.5
   562	   28063	35.5
   563	   28112	35.5
   564	   28164	34.8
   565	   28212	35.3
   566	   28262	35.5
   567	   28312	35.5
   568	   28362	35.3
   569	   28412	35.5
   570	   28462	35.5
   571	   28513	35.5
   572	   28564	35.5
   573	   28612	35.5
   574	   28662	35.5
   575	   28712	35.2
   576	   28762	35.3
   577	   28812	35.3
   578	   28862	35.3
   579	   28912	35.3
   580	   28963	35.5
   581	   29012	35.2
   582	   29062	35.2
   583	   29114	35.2
   584	   29163	35.5
   585	   29212	35.0
   586	   29264	35.5
   587	   29312	35.3
   588	   29364	35.3
   589	   29412	35.5
   590	   29462	35.5
   591	   29512	35.5
   592	   29564	35.3
   593	   29614	35.3
   594	   29665	35.5
   595	   29713	35.3
   596	   29762	34.7
   597	   29812	35.5
   598	   29862	35.3
   599	   29914	34.8
   600	   29964	35.5
   601	   30014	35.3
   602	   30065	35.3
   603	   30114	35.3
   604	   30162	35.5
   605	   30214	34.7
   606	   30264	35.5
   607	   30314	35.0
   608	   30363	35.5
   609	   30412	35.5
   610	   30464	35.5
   611	   30514	35.3
   612	   30564	35.5
   613	   30614	35.5
   614	   30664	35.5
   615	   30714	35.3
   616	   30765	35.5
   617	   30814	35.5
   618	   30862	35.5
   619	   30912	35.5
   620	   30962	35.5
   621	   31012	35.5
   622	   31065	35.3
   623	   31114	35.5
   624	   31164	35.5
   625	   31214	35.5
   626	   31264	35.2
   627	   31314	35.0
   628	   31364	35.3
   629	   31414	35.5
   630	   31464	35.5
   631	   31515	34.7
   632	   31564	35.5
   633	   31614	35.3
   634	   31664	35.5
   635	   31714	35.5
   636	   31765	35.5
   637	   31814	35.3
   638	   31864	35.0
   639	   31914	35.5
   640	   31964	35.5
   641	   32014	35.5
   642	   32064	35.5
   643	   32114	35.7
   644	   32165	35.5
   645	   32214	35.3
   646	   32264	35.3
   647	   32314	35.5
   648	   32364	35.5
   649	   32414	35.3
   650	   32464	35.5
   651	   32514	35.5
   652	   32564	35.5
   653	   32615	35.2
   654	   32664	35.5
   655	   32714	35.5
   656	   32764	35.5
   657	   32814	35.5
   658	   32864	35.5
   659	   32915	35.5
   660	   32964	35.7
   661	   33014	35.5
   662	   33064	35.3
   663	   33114	35.2
   664	   33164	35.5
   665	   33214	35.2
   666	   33264	35.5
   667	   33314	35.5
   668	   33365	35.5
   669	   33414	35.3
   670	   33464	35.3
   671	   33515	35.5
   672	   33565	35.5
   673	   33615	35.5
   674	   33665	35.2
   675	   33715	35.5
   676	   33765	35.5
   677	   33815	35.5
   678	   33865	34.7
   679	   33915	35.5
   680	   33966	35.5
   681	   34016	35.3
   682	   34065	35.7
   683	   34115	35.5
   684	   34165	35.5
   685	   34215	35.5
   686	   34265	35.5
   687	   34315	35.2
   688	   34365	35.5
   689	   34415	35.5
   690	   34465	35.5
   691	   34515	35.5
   692	   34565	35.5
   693	   34615	35.5
   694	   34665	35.5
   695	   34715	35.5
   696	   34766	35.5
   697	   34815	35.5
   698	   34865	35.5
   699	   34915	35.5
   700	   34965	35.5
   701	   35015	35.3
   702	   35065	35.2
   703	   35115	35.5
   704	   35165	35.5
   705	   35216	35.5
   706	   35265	35.5
   707	   35315	35.5
   708	   35365	35.2
   709	   35415	35.5
   710	   35465	35.5
   711	   35515	35.5
   712	   35565	35.5
   713	   35615	35.5
   714	   35665	35.5
   715	   35715	35.2
   716	   35765	35.2
   717	   35815	34.8
   718	   35866	35.5
   719	   35916	35.5
   720	   35965	35.5
   721	   36015	35.3
   722	   36065	35.5
   723	   36115	35.5
   724	   36165	35.2
   725	   36215	35.5
   726	   36265	35.5
   727	   36315	35.2
   728	   36365	35.5
   729	   36416	35.3
   730	   36465	35.5
   731	   36515	35.5
   732	   36565	34.7
   733	   36615	35.5
   734	   36665	35.5
   735	   36715	35.3
   736	   36765	35.3
   737	   36815	35.5
   738	   36865	35.5
   739	   36915	35.3
   740	   36965	35.5
   741	   37015	35.3
   742	   37066	35.5
   743	   37115	35.5
   744	   37165	35.5
   745	   37215	35.3
   746	   37265	35.5
   747	   37315	35.5
   748	   37366	35.2
   749	   37415	35.5
   750	   37465	35.5
   751	   37515	35.5
   752	   37565	35.5
   753	   37615	35.5
   754	   37665	35.5
   755	   37716	35.5
   756	   37765	35.3
   757	   37815	35.5
   758	   37866	35.7
   759	   37915	35.5
   760	   37965	35.5
   761	   38015	35.3
   762	   38065	35.5
   763	   38116	35.5
   764	   38165	35.5
   765	   38215	35.5
   766	   38265	35.5
   767	   38315	35.5
   768	   38365	35.5
   769	   38415	35.3
   770	   38465	35.5
   771	   38515	34.8
   772	   38565	35.5
   773	   38615	35.5
   774	   38665	35.5
   775	   38715	35.0
   776	   38765	35.5
   777	   38815	35.5
   778	   38865	35.5
   779	   38916	35.3
   780	   38965	35.5
   781	   39015	35.7
   782	   39065	34.8
   783	   39115	35.5
   784	   39165	35.5
   785	   39215	35.3
   786	   39265	35.2
   787	   39316	35.7
   788	   39365	35.5
   789	   39415	35.7
   790	   39465	35.5
   791	   39515	35.5
   792	   39565	35.5
   793	   39615	35.5
   794	   39665	35.7
   795	   39715	35.7
   796	   39765	35.5
   797	   39816	35.7
   798	   39865	35.5
   799	   39915	35.5
   800	   39965	35.7
   801	   40015	35.3
   802	   40066	35.7
   803	   40115	35.7
   804	   40165	35.5
   805	   40215	35.7
   806	   40265	35.5
   807	   40315	35.3
   808	   40366	35.2
   809	   40415	35.5
   810	   40465	35.5
   811	   40515	35.7
   812	   40565	35.7
   813	   40615	35.7
   814	   40666	35.5
   815	   40715	35.0
   816	   40765	35.5
   817	   40815	35.7
   818	   40865	35.5
   819	   40915	35.7
   820	   40965	35.5
   821	   41015	35.5
   822	   41065	35.7
   823	   41115	35.7
   824	   41165	35.3
   825	   41215	35.7
   826	   41266	35.5
   827	   41315	35.5
   828	   41365	35.3
   829	   41415	35.5
   830	   41465	35.5
   831	   41516	35.7
   832	   41565	35.0
   833	   41615	35.7
   834	   41665	35.7
   835	   41715	35.5
   836	   41765	35.5
   837	   41815	35.7
   838	   41865	35.3
   839	   41915	35.7
   840	   41965	35.7
   841	   42016	35.7
   842	   42065	35.5
   843	   42115	35.5
   844	   42165	35.7
   845	   42215	35.7
   846	   42266	35.7
   847	   42315	35.5
   848	   42365	35.5
   849	   42415	35.5
   850	   42465	35.7
   851	   42516	35.7
   852	   42565	35.7
   853	   42615	35.7
   854	   42665	35.5
   855	   42715	35.5
   856	   42765	35.5
   857	   42815	35.5
   858	   42865	35.7
   859	   42915	35.2
   860	   42965	34.8
   861	   43015	35.0
   862	   43065	35.5
   863	   43115	35.7
   864	   43165	35.7
   865	   43216	35.7
   866	   43265	35.7
   867	   43315	35.5
   868	   43365	35.7
   869	   43415	35.7
   870	   43465	35.7
   871	   43515	35.3
   872	   43565	35.5
   873	   43615	35.3
   874	   43665	35.7
   875	   43715	35.7
   876	   43765	35.3
   877	   43815	35.7
   878	   43865	35.7
   879	   43915	35.3
   880	   43965	35.7
   881	   44015	35.5
   882	   44065	35.7
   883	   44115	35.5
   884	   44165	35.8
   885	   44215	35.5
   886	   44265	35.7
   887	   44315	35.7
   888	   44363	35.3
   889	   44413	35.2
   890	   44464	35.7
   891	   44513	35.7
   892	   44563	35.7
   893	   44613	35.5
   894	   44663	35.5
   895	   44713	35.7
   896	   44762	35.7
   897	   44813	35.0
   898	   44863	35.5
   899	   44913	35.7
   900	   44963	35.5
   901	   45013	35.7
   902	   45065	35.7
   903	   45113	35.7
   904	   45163	35.7
   905	   45215	35.7
   906	   45263	35.7
   907	   45313	35.7
